# Pulseq sequence format
# Created by JEMRIS 2.8.3

[DEFINITIONS]
id 1
Num_Blocks 256

[JEMRIS]

# Format of blocks:
# #  D RF  GX  GY  GZ ADC
[BLOCKS]
  1  0  1   0   0   0  0
  2  0  0   0   0   0  0
  3  1  0   0   0   0  0
  4  0  0   1   2   0  0
  5  0  0   4   0   0  1
  6  0  0   5   6   0  0
  7  0  0   0   0   0  0
  8  2  0   0   0   0  0
  9  0  2   0   0   0  0
 10  0  0   0   0   0  0
 11  1  0   0   0   0  0
 12  0  0   1   7   0  0
 13  0  0   4   0   0  1
 14  0  0   5   8   0  0
 15  0  0   0   0   0  0
 16  2  0   0   0   0  0
 17  0  3   0   0   0  0
 18  0  0   0   0   0  0
 19  1  0   0   0   0  0
 20  0  0   1   9   0  0
 21  0  0   4   0   0  1
 22  0  0   5  10   0  0
 23  0  0   0   0   0  0
 24  2  0   0   0   0  0
 25  0  4   0   0   0  0
 26  0  0   0   0   0  0
 27  1  0   0   0   0  0
 28  0  0   1  11   0  0
 29  0  0   4   0   0  1
 30  0  0   5  12   0  0
 31  0  0   0   0   0  0
 32  2  0   0   0   0  0
 33  0  5   0   0   0  0
 34  0  0   0   0   0  0
 35  1  0   0   0   0  0
 36  0  0   1  13   0  0
 37  0  0   4   0   0  1
 38  0  0   5  14   0  0
 39  0  0   0   0   0  0
 40  2  0   0   0   0  0
 41  0  6   0   0   0  0
 42  0  0   0   0   0  0
 43  1  0   0   0   0  0
 44  0  0   1  15   0  0
 45  0  0   4   0   0  1
 46  0  0   5  16   0  0
 47  0  0   0   0   0  0
 48  2  0   0   0   0  0
 49  0  3   0   0   0  0
 50  0  0   0   0   0  0
 51  1  0   0   0   0  0
 52  0  0   1  17   0  0
 53  0  0   4   0   0  1
 54  0  0   5  18   0  0
 55  0  0   0   0   0  0
 56  2  0   0   0   0  0
 57  0  5   0   0   0  0
 58  0  0   0   0   0  0
 59  1  0   0   0   0  0
 60  0  0   1  19   0  0
 61  0  0   4   0   0  1
 62  0  0   5  20   0  0
 63  0  0   0   0   0  0
 64  2  0   0   0   0  0
 65  0  1   0   0   0  0
 66  0  0   0   0   0  0
 67  1  0   0   0   0  0
 68  0  0   1  21   0  0
 69  0  0   4   0   0  1
 70  0  0   5  22   0  0
 71  0  0   0   0   0  0
 72  2  0   0   0   0  0
 73  0  7   0   0   0  0
 74  0  0   0   0   0  0
 75  1  0   0   0   0  0
 76  0  0   1  23   0  0
 77  0  0   4   0   0  1
 78  0  0   5  24   0  0
 79  0  0   0   0   0  0
 80  2  0   0   0   0  0
 81  0  2   0   0   0  0
 82  0  0   0   0   0  0
 83  1  0   0   0   0  0
 84  0  0   1  25   0  0
 85  0  0   4   0   0  1
 86  0  0   5  26   0  0
 87  0  0   0   0   0  0
 88  2  0   0   0   0  0
 89  0  8   0   0   0  0
 90  0  0   0   0   0  0
 91  1  0   0   0   0  0
 92  0  0   1  27   0  0
 93  0  0   4   0   0  1
 94  0  0   5  28   0  0
 95  0  0   0   0   0  0
 96  2  0   0   0   0  0
 97  0  4   0   0   0  0
 98  0  0   0   0   0  0
 99  1  0   0   0   0  0
100  0  0   1  29   0  0
101  0  0   4   0   0  1
102  0  0   5  30   0  0
103  0  0   0   0   0  0
104  2  0   0   0   0  0
105  0  2   0   0   0  0
106  0  0   0   0   0  0
107  1  0   0   0   0  0
108  0  0   1  31   0  0
109  0  0   4   0   0  1
110  0  0   5  32   0  0
111  0  0   0   0   0  0
112  2  0   0   0   0  0
113  0  6   0   0   0  0
114  0  0   0   0   0  0
115  1  0   0   0   0  0
116  0  0   1  33   0  0
117  0  0   4   0   0  1
118  0  0   5  34   0  0
119  0  0   0   0   0  0
120  2  0   0   0   0  0
121  0  8   0   0   0  0
122  0  0   0   0   0  0
123  1  0   0   0   0  0
124  0  0   1  35   0  0
125  0  0   4   0   0  1
126  0  0   5  36   0  0
127  0  0   0   0   0  0
128  2  0   0   0   0  0
129  0  5   0   0   0  0
130  0  0   0   0   0  0
131  1  0   0   0   0  0
132  0  0   1   0   0  0
133  0  0   4   0   0  1
134  0  0   5   0   0  0
135  0  0   0   0   0  0
136  2  0   0   0   0  0
137  0  7   0   0   0  0
138  0  0   0   0   0  0
139  1  0   0   0   0  0
140  0  0   1  36   0  0
141  0  0   4   0   0  1
142  0  0   5  35   0  0
143  0  0   0   0   0  0
144  2  0   0   0   0  0
145  0  7   0   0   0  0
146  0  0   0   0   0  0
147  1  0   0   0   0  0
148  0  0   1  34   0  0
149  0  0   4   0   0  1
150  0  0   5  33   0  0
151  0  0   0   0   0  0
152  2  0   0   0   0  0
153  0  5   0   0   0  0
154  0  0   0   0   0  0
155  1  0   0   0   0  0
156  0  0   1  32   0  0
157  0  0   4   0   0  1
158  0  0   5  31   0  0
159  0  0   0   0   0  0
160  2  0   0   0   0  0
161  0  8   0   0   0  0
162  0  0   0   0   0  0
163  1  0   0   0   0  0
164  0  0   1  30   0  0
165  0  0   4   0   0  1
166  0  0   5  29   0  0
167  0  0   0   0   0  0
168  2  0   0   0   0  0
169  0  6   0   0   0  0
170  0  0   0   0   0  0
171  1  0   0   0   0  0
172  0  0   1  28   0  0
173  0  0   4   0   0  1
174  0  0   5  27   0  0
175  0  0   0   0   0  0
176  2  0   0   0   0  0
177  0  2   0   0   0  0
178  0  0   0   0   0  0
179  1  0   0   0   0  0
180  0  0   1  26   0  0
181  0  0   4   0   0  1
182  0  0   5  25   0  0
183  0  0   0   0   0  0
184  2  0   0   0   0  0
185  0  4   0   0   0  0
186  0  0   0   0   0  0
187  1  0   0   0   0  0
188  0  0   1  24   0  0
189  0  0   4   0   0  1
190  0  0   5  23   0  0
191  0  0   0   0   0  0
192  2  0   0   0   0  0
193  0  8   0   0   0  0
194  0  0   0   0   0  0
195  1  0   0   0   0  0
196  0  0   1  22   0  0
197  0  0   4   0   0  1
198  0  0   5  21   0  0
199  0  0   0   0   0  0
200  2  0   0   0   0  0
201  0  2   0   0   0  0
202  0  0   0   0   0  0
203  1  0   0   0   0  0
204  0  0   1  20   0  0
205  0  0   4   0   0  1
206  0  0   5  19   0  0
207  0  0   0   0   0  0
208  2  0   0   0   0  0
209  0  7   0   0   0  0
210  0  0   0   0   0  0
211  1  0   0   0   0  0
212  0  0   1  18   0  0
213  0  0   4   0   0  1
214  0  0   5  17   0  0
215  0  0   0   0   0  0
216  2  0   0   0   0  0
217  0  1   0   0   0  0
218  0  0   0   0   0  0
219  1  0   0   0   0  0
220  0  0   1  16   0  0
221  0  0   4   0   0  1
222  0  0   5  15   0  0
223  0  0   0   0   0  0
224  2  0   0   0   0  0
225  0  5   0   0   0  0
226  0  0   0   0   0  0
227  1  0   0   0   0  0
228  0  0   1  14   0  0
229  0  0   4   0   0  1
230  0  0   5  13   0  0
231  0  0   0   0   0  0
232  2  0   0   0   0  0
233  0  3   0   0   0  0
234  0  0   0   0   0  0
235  1  0   0   0   0  0
236  0  0   1  12   0  0
237  0  0   4   0   0  1
238  0  0   5  11   0  0
239  0  0   0   0   0  0
240  2  0   0   0   0  0
241  0  6   0   0   0  0
242  0  0   0   0   0  0
243  1  0   0   0   0  0
244  0  0   1  10   0  0
245  0  0   4   0   0  1
246  0  0   5   9   0  0
247  0  0   0   0   0  0
248  2  0   0   0   0  0
249  0  5   0   0   0  0
250  0  0   0   0   0  0
251  1  0   0   0   0  0
252  0  0   1   8   0  0
253  0  0   4   0   0  1
254  0  0   5   7   0  0
255  0  0   0   0   0  0
256  2  0   0   0   0  0

# Format of RF events:
# id amplitude mag_id phase_id freq phase
# ..        Hz   ....     ....   Hz   rad
[RF]
1      555.556 1 2 0 0
2      555.556 1 2 0 1.74533
3      555.556 1 2 0 5.23599
4      555.556 1 2 0 4.18879
5      555.556 1 2 0 4.88692
6      555.556 1 2 0 1.0472
7      555.556 1 2 0 3.14159
8      555.556 1 2 0 2.0944

# Format of trapezoid gradients:
# id amplitude rise flat fall
# ..      Hz/m   us   us   us
[TRAP]
 1     -146276.6 930   10 930
 2     -140449.4 890    0 890
 3         62500 400 4000 400
 4             0   0 4000   0
 5      158653.8 1000 1600 1000
 6      140449.4 890    0 890
 7     -136264.5 860    0 860
 8      136264.5 860    0 860
 9     -130208.3 840    0 840
10      130208.3 840    0 840
11     -126953.1 800    0 800
12      126953.1 800    0 800
13     -121753.2 770    0 770
14      121753.2 770    0 770
15     -114583.4 750    0 750
16      114583.4 750    0 750
17     -108506.9 710   10 710
18      108506.9 710   10 710
19     -103400.7 680    0 680
20      103400.7 680    0 680
21     -99206.35 630    0 630
22      99206.35 630    0 630
23     -92690.68 590    0 590
24      92690.68 590    0 590
25     -85227.27 550    0 550
26      85227.27 550    0 550
27        -78125 500    0 500
28         78125 500    0 500
29     -67934.78 460    0 460
30      67934.78 460    0 460
31     -60096.15 390    0 390
32      60096.15 390    0 390
33     -48828.12 320    0 320
34      48828.12 320    0 320
35     -33967.39 230    0 230
36      33967.39 230    0 230

# Format of ADC events:
# id num dwell delay freq phase
# ..  ..    ns    us   Hz   rad
[ADC]
 1  32 125000   0 0 0

# Format of delays:
# id delay (us)
[DELAYS]
1 3690
2 35950

# Sequence Shapes

[SHAPES]

shape_id 1
num_samples 99
1
0
0
88
-0.1
-0.1
6

shape_id 2
num_samples 99
0
0
97


