# Pulseq sequence format
# Created by JEMRIS 2.8.3

[DEFINITIONS]
id 1
Num_Blocks 192

[JEMRIS]

# Format of blocks:
# #  D RF  GX  GY  GZ ADC
[BLOCKS]
  1  0  1   0   0   0  0
  2  1  0   0   0   0  0
  3  0  0   1   2   0  0
  4  0  0   3   0   0  1
  5  0  0   4   5   0  0
  6  2  0   0   0   0  0
  7  0  2   0   0   0  0
  8  1  0   0   0   0  0
  9  0  0   1   6   0  0
 10  0  0   3   0   0  1
 11  0  0   4   7   0  0
 12  2  0   0   0   0  0
 13  0  3   0   0   0  0
 14  1  0   0   0   0  0
 15  0  0   1   8   0  0
 16  0  0   3   0   0  1
 17  0  0   4   9   0  0
 18  2  0   0   0   0  0
 19  0  4   0   0   0  0
 20  1  0   0   0   0  0
 21  0  0   1  10   0  0
 22  0  0   3   0   0  1
 23  0  0   4  11   0  0
 24  2  0   0   0   0  0
 25  0  5   0   0   0  0
 26  1  0   0   0   0  0
 27  0  0   1  12   0  0
 28  0  0   3   0   0  1
 29  0  0   4  13   0  0
 30  2  0   0   0   0  0
 31  0  6   0   0   0  0
 32  1  0   0   0   0  0
 33  0  0   1  14   0  0
 34  0  0   3   0   0  1
 35  0  0   4  15   0  0
 36  2  0   0   0   0  0
 37  0  3   0   0   0  0
 38  1  0   0   0   0  0
 39  0  0   1  16   0  0
 40  0  0   3   0   0  1
 41  0  0   4  17   0  0
 42  2  0   0   0   0  0
 43  0  5   0   0   0  0
 44  1  0   0   0   0  0
 45  0  0   1  18   0  0
 46  0  0   3   0   0  1
 47  0  0   4  19   0  0
 48  2  0   0   0   0  0
 49  0  1   0   0   0  0
 50  1  0   0   0   0  0
 51  0  0   1  20   0  0
 52  0  0   3   0   0  1
 53  0  0   4  21   0  0
 54  2  0   0   0   0  0
 55  0  7   0   0   0  0
 56  1  0   0   0   0  0
 57  0  0   1  22   0  0
 58  0  0   3   0   0  1
 59  0  0   4  23   0  0
 60  2  0   0   0   0  0
 61  0  2   0   0   0  0
 62  1  0   0   0   0  0
 63  0  0   1  24   0  0
 64  0  0   3   0   0  1
 65  0  0   4  25   0  0
 66  2  0   0   0   0  0
 67  0  8   0   0   0  0
 68  1  0   0   0   0  0
 69  0  0   1  26   0  0
 70  0  0   3   0   0  1
 71  0  0   4  27   0  0
 72  2  0   0   0   0  0
 73  0  4   0   0   0  0
 74  1  0   0   0   0  0
 75  0  0   1  28   0  0
 76  0  0   3   0   0  1
 77  0  0   4  29   0  0
 78  2  0   0   0   0  0
 79  0  2   0   0   0  0
 80  1  0   0   0   0  0
 81  0  0   1  30   0  0
 82  0  0   3   0   0  1
 83  0  0   4  31   0  0
 84  2  0   0   0   0  0
 85  0  6   0   0   0  0
 86  1  0   0   0   0  0
 87  0  0   1  32   0  0
 88  0  0   3   0   0  1
 89  0  0   4  33   0  0
 90  2  0   0   0   0  0
 91  0  8   0   0   0  0
 92  1  0   0   0   0  0
 93  0  0   1  34   0  0
 94  0  0   3   0   0  1
 95  0  0   4  35   0  0
 96  2  0   0   0   0  0
 97  0  5   0   0   0  0
 98  1  0   0   0   0  0
 99  0  0   1  36   0  0
100  0  0   3   0   0  1
101  0  0   4  36   0  0
102  2  0   0   0   0  0
103  0  7   0   0   0  0
104  1  0   0   0   0  0
105  0  0   1  35   0  0
106  0  0   3   0   0  1
107  0  0   4  34   0  0
108  2  0   0   0   0  0
109  0  7   0   0   0  0
110  1  0   0   0   0  0
111  0  0   1  33   0  0
112  0  0   3   0   0  1
113  0  0   4  32   0  0
114  2  0   0   0   0  0
115  0  5   0   0   0  0
116  1  0   0   0   0  0
117  0  0   1  31   0  0
118  0  0   3   0   0  1
119  0  0   4  30   0  0
120  2  0   0   0   0  0
121  0  8   0   0   0  0
122  1  0   0   0   0  0
123  0  0   1  29   0  0
124  0  0   3   0   0  1
125  0  0   4  28   0  0
126  2  0   0   0   0  0
127  0  6   0   0   0  0
128  1  0   0   0   0  0
129  0  0   1  27   0  0
130  0  0   3   0   0  1
131  0  0   4  26   0  0
132  2  0   0   0   0  0
133  0  2   0   0   0  0
134  1  0   0   0   0  0
135  0  0   1  25   0  0
136  0  0   3   0   0  1
137  0  0   4  24   0  0
138  2  0   0   0   0  0
139  0  4   0   0   0  0
140  1  0   0   0   0  0
141  0  0   1  23   0  0
142  0  0   3   0   0  1
143  0  0   4  22   0  0
144  2  0   0   0   0  0
145  0  8   0   0   0  0
146  1  0   0   0   0  0
147  0  0   1  21   0  0
148  0  0   3   0   0  1
149  0  0   4  20   0  0
150  2  0   0   0   0  0
151  0  2   0   0   0  0
152  1  0   0   0   0  0
153  0  0   1  19   0  0
154  0  0   3   0   0  1
155  0  0   4  18   0  0
156  2  0   0   0   0  0
157  0  7   0   0   0  0
158  1  0   0   0   0  0
159  0  0   1  17   0  0
160  0  0   3   0   0  1
161  0  0   4  16   0  0
162  2  0   0   0   0  0
163  0  1   0   0   0  0
164  1  0   0   0   0  0
165  0  0   1  15   0  0
166  0  0   3   0   0  1
167  0  0   4  14   0  0
168  2  0   0   0   0  0
169  0  5   0   0   0  0
170  1  0   0   0   0  0
171  0  0   1  13   0  0
172  0  0   3   0   0  1
173  0  0   4  12   0  0
174  2  0   0   0   0  0
175  0  3   0   0   0  0
176  1  0   0   0   0  0
177  0  0   1  11   0  0
178  0  0   3   0   0  1
179  0  0   4  10   0  0
180  2  0   0   0   0  0
181  0  6   0   0   0  0
182  1  0   0   0   0  0
183  0  0   1   9   0  0
184  0  0   3   0   0  1
185  0  0   4   8   0  0
186  2  0   0   0   0  0
187  0  5   0   0   0  0
188  1  0   0   0   0  0
189  0  0   1   7   0  0
190  0  0   3   0   0  1
191  0  0   4   6   0  0
192  2  0   0   0   0  0

# Format of RF events:
# id amplitude mag_id phase_id freq phase
# ..        Hz   ....     ....   Hz   rad
[RF]
1      555.556 1 2 0 0
2      555.556 1 2 0 1.74533
3      555.556 1 2 0 5.23599
4      555.556 1 2 0 4.18879
5      555.556 1 2 0 4.88692
6      555.556 1 2 0 1.0472
7      555.556 1 2 0 3.14159
8      555.556 1 2 0 2.0944

# Format of trapezoid gradients:
# id amplitude rise flat fall
# ..      Hz/m   us   us   us
[TRAP]
 1     -147849.5 930    0 930
 2     -140449.4 890    0 890
 3         62500 400 4000 400
 4      158653.8 1000 1600 1000
 5      140449.4 890    0 890
 6     -136264.5 860    0 860
 7      136264.5 860    0 860
 8     -131777.1 830    0 830
 9      131777.1 830    0 830
10     -126953.1 800    0 800
11      126953.1 800    0 800
12     -121753.2 770    0 770
13      121753.2 770    0 770
14     -116131.8 740    0 740
15      116131.8 740    0 740
16     -110035.2 710    0 710
17      110035.2 710    0 710
18       -104944 670    0 670
19        104944 670    0 670
20     -99206.35 630    0 630
21      99206.35 630    0 630
22     -92690.68 590    0 590
23      92690.68 590    0 590
24     -85227.27 550    0 550
25      85227.27 550    0 550
26        -78125 500    0 500
27         78125 500    0 500
28     -69444.44 450    0 450
29      69444.44 450    0 450
30     -60096.15 390    0 390
31      60096.15 390    0 390
32     -48828.12 320    0 320
33      48828.12 320    0 320
34     -33967.39 230    0 230
35      33967.39 230    0 230
36             0   0    0   0

# Format of ADC events:
# id num dwell delay freq phase
# ..  ..    ns    us   Hz   rad
[ADC]
 1  32 125000 400 0 0

# Format of delays:
# id delay (us)
[DELAYS]
1 3690
2 35950

# Sequence Shapes

[SHAPES]

shape_id 1
num_samples 100
1
0
0
97

shape_id 2
num_samples 100
0
0
98


