# Pulseq sequence file
# Created by PyPulseq

[VERSION]
major 1
minor 2
revision 0

# Format of blocks:
#  #  D RF  GX  GY  GZ ADC
[BLOCKS]
    1  0  1   0   0   1  0
    2  0  0   3   2   4  0
    3  1  0   0   0   0  0
    4  0  0   5   0   0  1
    5  0  0   0   6   6  0
    6  1  0   0   0   0  0
    7  0  1   0   0   1  0
    8  0  0   3   7   4  0
    9  1  0   0   0   0  0
   10  0  0   5   0   0  1
   11  0  0   0   6   6  0
   12  1  0   0   0   0  0
   13  0  1   0   0   1  0
   14  0  0   3   8   4  0
   15  1  0   0   0   0  0
   16  0  0   5   0   0  1
   17  0  0   0   6   6  0
   18  1  0   0   0   0  0
   19  0  1   0   0   1  0
   20  0  0   3   9   4  0
   21  1  0   0   0   0  0
   22  0  0   5   0   0  1
   23  0  0   0   6   6  0
   24  1  0   0   0   0  0
   25  0  1   0   0   1  0
   26  0  0   3  10   4  0
   27  1  0   0   0   0  0
   28  0  0   5   0   0  1
   29  0  0   0   6   6  0
   30  1  0   0   0   0  0
   31  0  1   0   0   1  0
   32  0  0   3  11   4  0
   33  1  0   0   0   0  0
   34  0  0   5   0   0  1
   35  0  0   0   6   6  0
   36  1  0   0   0   0  0
   37  0  1   0   0   1  0
   38  0  0   3  12   4  0
   39  1  0   0   0   0  0
   40  0  0   5   0   0  1
   41  0  0   0   6   6  0
   42  1  0   0   0   0  0
   43  0  1   0   0   1  0
   44  0  0   3  13   4  0
   45  1  0   0   0   0  0
   46  0  0   5   0   0  1
   47  0  0   0   6   6  0
   48  1  0   0   0   0  0
   49  0  1   0   0   1  0
   50  0  0   3  14   4  0
   51  1  0   0   0   0  0
   52  0  0   5   0   0  1
   53  0  0   0   6   6  0
   54  1  0   0   0   0  0
   55  0  1   0   0   1  0
   56  0  0   3  15   4  0
   57  1  0   0   0   0  0
   58  0  0   5   0   0  1
   59  0  0   0   6   6  0
   60  1  0   0   0   0  0
   61  0  1   0   0   1  0
   62  0  0   3  16   4  0
   63  1  0   0   0   0  0
   64  0  0   5   0   0  1
   65  0  0   0   6   6  0
   66  1  0   0   0   0  0
   67  0  1   0   0   1  0
   68  0  0   3  17   4  0
   69  1  0   0   0   0  0
   70  0  0   5   0   0  1
   71  0  0   0   6   6  0
   72  1  0   0   0   0  0
   73  0  1   0   0   1  0
   74  0  0   3  18   4  0
   75  1  0   0   0   0  0
   76  0  0   5   0   0  1
   77  0  0   0   6   6  0
   78  1  0   0   0   0  0
   79  0  1   0   0   1  0
   80  0  0   3  19   4  0
   81  1  0   0   0   0  0
   82  0  0   5   0   0  1
   83  0  0   0   6   6  0
   84  1  0   0   0   0  0
   85  0  1   0   0   1  0
   86  0  0   3  20   4  0
   87  1  0   0   0   0  0
   88  0  0   5   0   0  1
   89  0  0   0   6   6  0
   90  1  0   0   0   0  0
   91  0  1   0   0   1  0
   92  0  0   3  21   4  0
   93  1  0   0   0   0  0
   94  0  0   5   0   0  1
   95  0  0   0   6   6  0
   96  1  0   0   0   0  0
   97  0  1   0   0   1  0
   98  0  0   3  22   4  0
   99  1  0   0   0   0  0
  100  0  0   5   0   0  1
  101  0  0   0   6   6  0
  102  1  0   0   0   0  0
  103  0  1   0   0   1  0
  104  0  0   3  23   4  0
  105  1  0   0   0   0  0
  106  0  0   5   0   0  1
  107  0  0   0   6   6  0
  108  1  0   0   0   0  0
  109  0  1   0   0   1  0
  110  0  0   3  24   4  0
  111  1  0   0   0   0  0
  112  0  0   5   0   0  1
  113  0  0   0   6   6  0
  114  1  0   0   0   0  0
  115  0  1   0   0   1  0
  116  0  0   3  25   4  0
  117  1  0   0   0   0  0
  118  0  0   5   0   0  1
  119  0  0   0   6   6  0
  120  1  0   0   0   0  0
  121  0  1   0   0   1  0
  122  0  0   3  26   4  0
  123  1  0   0   0   0  0
  124  0  0   5   0   0  1
  125  0  0   0   6   6  0
  126  1  0   0   0   0  0
  127  0  1   0   0   1  0
  128  0  0   3  27   4  0
  129  1  0   0   0   0  0
  130  0  0   5   0   0  1
  131  0  0   0   6   6  0
  132  1  0   0   0   0  0
  133  0  1   0   0   1  0
  134  0  0   3  28   4  0
  135  1  0   0   0   0  0
  136  0  0   5   0   0  1
  137  0  0   0   6   6  0
  138  1  0   0   0   0  0
  139  0  1   0   0   1  0
  140  0  0   3  29   4  0
  141  1  0   0   0   0  0
  142  0  0   5   0   0  1
  143  0  0   0   6   6  0
  144  1  0   0   0   0  0
  145  0  1   0   0   1  0
  146  0  0   3  30   4  0
  147  1  0   0   0   0  0
  148  0  0   5   0   0  1
  149  0  0   0   6   6  0
  150  1  0   0   0   0  0
  151  0  1   0   0   1  0
  152  0  0   3  31   4  0
  153  1  0   0   0   0  0
  154  0  0   5   0   0  1
  155  0  0   0   6   6  0
  156  1  0   0   0   0  0
  157  0  1   0   0   1  0
  158  0  0   3  32   4  0
  159  1  0   0   0   0  0
  160  0  0   5   0   0  1
  161  0  0   0   6   6  0
  162  1  0   0   0   0  0
  163  0  1   0   0   1  0
  164  0  0   3  33   4  0
  165  1  0   0   0   0  0
  166  0  0   5   0   0  1
  167  0  0   0   6   6  0
  168  1  0   0   0   0  0
  169  0  1   0   0   1  0
  170  0  0   3  34   4  0
  171  1  0   0   0   0  0
  172  0  0   5   0   0  1
  173  0  0   0   6   6  0
  174  1  0   0   0   0  0
  175  0  1   0   0   1  0
  176  0  0   3  35   4  0
  177  1  0   0   0   0  0
  178  0  0   5   0   0  1
  179  0  0   0   6   6  0
  180  1  0   0   0   0  0
  181  0  1   0   0   1  0
  182  0  0   3  36   4  0
  183  1  0   0   0   0  0
  184  0  0   5   0   0  1
  185  0  0   0   6   6  0
  186  1  0   0   0   0  0
  187  0  1   0   0   1  0
  188  0  0   3  37   4  0
  189  1  0   0   0   0  0
  190  0  0   5   0   0  1
  191  0  0   0   6   6  0
  192  1  0   0   0   0  0
  193  0  1   0   0   1  0
  194  0  0   3  38   4  0
  195  1  0   0   0   0  0
  196  0  0   5   0   0  1
  197  0  0   0   6   6  0
  198  1  0   0   0   0  0
  199  0  1   0   0   1  0
  200  0  0   3  39   4  0
  201  1  0   0   0   0  0
  202  0  0   5   0   0  1
  203  0  0   0   6   6  0
  204  1  0   0   0   0  0
  205  0  1   0   0   1  0
  206  0  0   3  40   4  0
  207  1  0   0   0   0  0
  208  0  0   5   0   0  1
  209  0  0   0   6   6  0
  210  1  0   0   0   0  0
  211  0  1   0   0   1  0
  212  0  0   3  41   4  0
  213  1  0   0   0   0  0
  214  0  0   5   0   0  1
  215  0  0   0   6   6  0
  216  1  0   0   0   0  0
  217  0  1   0   0   1  0
  218  0  0   3  42   4  0
  219  1  0   0   0   0  0
  220  0  0   5   0   0  1
  221  0  0   0   6   6  0
  222  1  0   0   0   0  0
  223  0  1   0   0   1  0
  224  0  0   3  43   4  0
  225  1  0   0   0   0  0
  226  0  0   5   0   0  1
  227  0  0   0   6   6  0
  228  1  0   0   0   0  0
  229  0  1   0   0   1  0
  230  0  0   3  44   4  0
  231  1  0   0   0   0  0
  232  0  0   5   0   0  1
  233  0  0   0   6   6  0
  234  1  0   0   0   0  0
  235  0  1   0   0   1  0
  236  0  0   3  45   4  0
  237  1  0   0   0   0  0
  238  0  0   5   0   0  1
  239  0  0   0   6   6  0
  240  1  0   0   0   0  0
  241  0  1   0   0   1  0
  242  0  0   3  46   4  0
  243  1  0   0   0   0  0
  244  0  0   5   0   0  1
  245  0  0   0   6   6  0
  246  1  0   0   0   0  0
  247  0  1   0   0   1  0
  248  0  0   3  47   4  0
  249  1  0   0   0   0  0
  250  0  0   5   0   0  1
  251  0  0   0   6   6  0
  252  1  0   0   0   0  0
  253  0  1   0   0   1  0
  254  0  0   3  48   4  0
  255  1  0   0   0   0  0
  256  0  0   5   0   0  1
  257  0  0   0   6   6  0
  258  1  0   0   0   0  0
  259  0  1   0   0   1  0
  260  0  0   3  49   4  0
  261  1  0   0   0   0  0
  262  0  0   5   0   0  1
  263  0  0   0   6   6  0
  264  1  0   0   0   0  0
  265  0  1   0   0   1  0
  266  0  0   3  50   4  0
  267  1  0   0   0   0  0
  268  0  0   5   0   0  1
  269  0  0   0   6   6  0
  270  1  0   0   0   0  0
  271  0  1   0   0   1  0
  272  0  0   3  51   4  0
  273  1  0   0   0   0  0
  274  0  0   5   0   0  1
  275  0  0   0   6   6  0
  276  1  0   0   0   0  0
  277  0  1   0   0   1  0
  278  0  0   3  52   4  0
  279  1  0   0   0   0  0
  280  0  0   5   0   0  1
  281  0  0   0   6   6  0
  282  1  0   0   0   0  0
  283  0  1   0   0   1  0
  284  0  0   3  53   4  0
  285  1  0   0   0   0  0
  286  0  0   5   0   0  1
  287  0  0   0   6   6  0
  288  1  0   0   0   0  0
  289  0  1   0   0   1  0
  290  0  0   3  54   4  0
  291  1  0   0   0   0  0
  292  0  0   5   0   0  1
  293  0  0   0   6   6  0
  294  1  0   0   0   0  0
  295  0  1   0   0   1  0
  296  0  0   3  55   4  0
  297  1  0   0   0   0  0
  298  0  0   5   0   0  1
  299  0  0   0   6   6  0
  300  1  0   0   0   0  0
  301  0  1   0   0   1  0
  302  0  0   3  56   4  0
  303  1  0   0   0   0  0
  304  0  0   5   0   0  1
  305  0  0   0   6   6  0
  306  1  0   0   0   0  0
  307  0  1   0   0   1  0
  308  0  0   3  57   4  0
  309  1  0   0   0   0  0
  310  0  0   5   0   0  1
  311  0  0   0   6   6  0
  312  1  0   0   0   0  0
  313  0  1   0   0   1  0
  314  0  0   3  58   4  0
  315  1  0   0   0   0  0
  316  0  0   5   0   0  1
  317  0  0   0   6   6  0
  318  1  0   0   0   0  0
  319  0  1   0   0   1  0
  320  0  0   3  59   4  0
  321  1  0   0   0   0  0
  322  0  0   5   0   0  1
  323  0  0   0   6   6  0
  324  1  0   0   0   0  0
  325  0  1   0   0   1  0
  326  0  0   3  60   4  0
  327  1  0   0   0   0  0
  328  0  0   5   0   0  1
  329  0  0   0   6   6  0
  330  1  0   0   0   0  0
  331  0  1   0   0   1  0
  332  0  0   3  61   4  0
  333  1  0   0   0   0  0
  334  0  0   5   0   0  1
  335  0  0   0   6   6  0
  336  1  0   0   0   0  0
  337  0  1   0   0   1  0
  338  0  0   3  62   4  0
  339  1  0   0   0   0  0
  340  0  0   5   0   0  1
  341  0  0   0   6   6  0
  342  1  0   0   0   0  0
  343  0  1   0   0   1  0
  344  0  0   3  63   4  0
  345  1  0   0   0   0  0
  346  0  0   5   0   0  1
  347  0  0   0   6   6  0
  348  1  0   0   0   0  0
  349  0  1   0   0   1  0
  350  0  0   3  64   4  0
  351  1  0   0   0   0  0
  352  0  0   5   0   0  1
  353  0  0   0   6   6  0
  354  1  0   0   0   0  0
  355  0  1   0   0   1  0
  356  0  0   3  65   4  0
  357  1  0   0   0   0  0
  358  0  0   5   0   0  1
  359  0  0   0   6   6  0
  360  1  0   0   0   0  0
  361  0  1   0   0   1  0
  362  0  0   3  66   4  0
  363  1  0   0   0   0  0
  364  0  0   5   0   0  1
  365  0  0   0   6   6  0
[RF]
1      21.9435 1 2 100 -9800 0
2      21.9435 1 2 100 -8400 0
3      21.9435 1 2 100 -7000 0
4      21.9435 1 2 100 -5600 0
5      21.9435 1 2 100 -4200 0
6      21.9435 1 2 100 -2800 0
7      21.9435 1 2 100 -1400 0
8      21.9435 1 2 100 -1.38778e-12 0
9      21.9435 1 2 100 1400 0
10      21.9435 1 2 100 2800 0
11      21.9435 1 2 100 4200 0
12      21.9435 1 2 100 5600 0
13      21.9435 1 2 100 7000 0
14      21.9435 1 2 100 8400 0
15      21.9435 1 2 100 9800 0
16      21.9435 1 2 100 11200 0


# Format of trapezoid gradients:
# id amplitude rise flat fall delay
# ..      Hz/m   us   us   us    us
[TRAP]
 1       200000  40 4000  40  60
 2      -561798 110  780 110   0
 3      -579354 110  780 110   0
 4      -439130  80  840  80   0
 5       390625  80 2560  80   0
 6            0   0 1000   0   0
 7      -551215 100  800 100   0
 8      -546875 100  800 100   0
 9      -542535 100  800 100   0
10      -538194 100  800 100   0
11      -533854 100  800 100   0
12      -529514 100  800 100   0
13      -525174 100  800 100   0
14      -520833 100  800 100   0
15      -516493 100  800 100   0
16      -512153 100  800 100   0
17      -507812 100  800 100   0
18      -497940  90  820  90   0
19      -493647  90  820  90   0
20      -489354  90  820  90   0
21      -485062  90  820  90   0
22      -480769  90  820  90   0
23      -476477  90  820  90   0
24      -472184  90  820  90   0
25      -467891  90  820  90   0
26      -463599  90  820  90   0
27      -459306  90  820  90   0
28      -455014  90  820  90   0
29      -450721  90  820  90   0
30      -441576  80  840  80   0
31      -437330  80  840  80   0
32      -433084  80  840  80   0
33      -428838  80  840  80   0
34      -424592  80  840  80   0
35      -420346  80  840  80   0
36      -416101  80  840  80   0
37      -411855  80  840  80   0
38      -407609  80  840  80   0
39      -403363  80  840  80   0
40      -399117  80  840  80   0
41      -394871  80  840  80   0
42      -386425  70  860  70   0
43      -382224  70  860  70   0
44      -378024  70  860  70   0
45      -373824  70  860  70   0
46      -369624  70  860  70   0
47      -365423  70  860  70   0
48      -361223  70  860  70   0
49      -357023  70  860  70   0
50      -352823  70  860  70   0
51      -348622  70  860  70   0
52      -344422  70  860  70   0
53      -340222  70  860  70   0
54      -336022  70  860  70   0
55      -328291  60  880  60   0
56      -324136  60  880  60   0
57      -319980  60  880  60   0
58      -315824  60  880  60   0
59      -311669  60  880  60   0
60      -307513  60  880  60   0
61      -303358  60  880  60   0
62      -299202  60  880  60   0
63      -295047  60  880  60   0
64      -290891  60  880  60   0
65      -286735  60  880  60   0
66      -282580  60  880  60   0
67      -275493  50  900  50   0
68      -271382  50  900  50   0
69      -267270  50  900  50   0
70      -263158  50  900  50   0
71      -259046  50  900  50   0
72      -254934  50  900  50   0
73      -250822  50  900  50   0
74      -246711  50  900  50   0
75      -242599  50  900  50   0
76      -238487  50  900  50   0
77      -234375  50  900  50   0
78      -230263  50  900  50   0
79      -226151  50  900  50   0
80      -219727  40  920  40   0
81      -215658  40  920  40   0
82      -211589  40  920  40   0
83      -207520  40  920  40   0
84      -203451  40  920  40   0
85      -199382  40  920  40   0
86      -195312  40  920  40   0
87      -191243  40  920  40   0
88      -187174  40  920  40   0
89      -183105  40  920  40   0
90      -179036  40  920  40   0
91      -174967  40  920  40   0
92      -170898  40  920  40   0
93      -165110  30  940  30   0
94      -161082  30  940  30   0
95      -157055  30  940  30   0
96      -153028  30  940  30   0
97      -149001  30  940  30   0
98      -144974  30  940  30   0
99      -140947  30  940  30   0
100      -136920  30  940  30   0
101      -132893  30  940  30   0
102      -128866  30  940  30   0
103      -124839  30  940  30   0
104      -120812  30  940  30   0
105      -116785  30  940  30   0
106      -112758  30  940  30   0
107      -107621  20  960  20   0
108      -103635  20  960  20   0
109     -99649.2  20  960  20   0
110     -95663.3  20  960  20   0
111     -91677.3  20  960  20   0
112     -87691.3  20  960  20   0
113     -83705.4  20  960  20   0
114     -79719.4  20  960  20   0
115     -75733.4  20  960  20   0
116     -71747.4  20  960  20   0
117     -67761.5  20  960  20   0
118     -63775.5  20  960  20   0
119     -59789.5  20  960  20   0
120     -55239.9  10  980  10   0
121     -51294.2  10  980  10   0
122     -47348.5  10  980  10   0
123     -43402.8  10  980  10   0
124     -39457.1  10  980  10   0
125     -35511.4  10  980  10   0
126     -31565.7  10  980  10   0
127     -27619.9  10  980  10   0
128     -23674.2  10  980  10   0
129     -19728.5  10  980  10   0
130     -15782.8  10  980  10   0
131     -11837.1  10  980  10   0
132     -7891.41  10  980  10   0
133     -3945.71  10  980  10   0
134      3945.71  10  980  10   0
135      7891.41  10  980  10   0
136      11837.1  10  980  10   0
137      15782.8  10  980  10   0
138      19728.5  10  980  10   0
139      23674.2  10  980  10   0
140      27619.9  10  980  10   0
141      31565.7  10  980  10   0
142      35511.4  10  980  10   0
143      39457.1  10  980  10   0
144      43402.8  10  980  10   0
145      47348.5  10  980  10   0
146      51294.2  10  980  10   0
147      55239.9  10  980  10   0
148      59789.5  20  960  20   0
149      63775.5  20  960  20   0
150      67761.5  20  960  20   0
151      71747.4  20  960  20   0
152      75733.4  20  960  20   0
153      79719.4  20  960  20   0
154      83705.4  20  960  20   0
155      87691.3  20  960  20   0
156      91677.3  20  960  20   0
157      95663.3  20  960  20   0
158      99649.2  20  960  20   0
159       103635  20  960  20   0
160       107621  20  960  20   0
161       112758  30  940  30   0
162       116785  30  940  30   0
163       120812  30  940  30   0
164       124839  30  940  30   0
165       128866  30  940  30   0
166       132893  30  940  30   0
167       136920  30  940  30   0
168       140947  30  940  30   0
169       144974  30  940  30   0
170       149001  30  940  30   0
171       153028  30  940  30   0
172       157055  30  940  30   0
173       161082  30  940  30   0
174       165110  30  940  30   0
175       170898  40  920  40   0
176       174967  40  920  40   0
177       179036  40  920  40   0
178       183105  40  920  40   0
179       187174  40  920  40   0
180       191243  40  920  40   0
181       195312  40  920  40   0
182       199382  40  920  40   0
183       203451  40  920  40   0
184       207520  40  920  40   0
185       211589  40  920  40   0
186       215658  40  920  40   0
187       219727  40  920  40   0
188       226151  50  900  50   0
189       230263  50  900  50   0
190       234375  50  900  50   0
191       238487  50  900  50   0
192       242599  50  900  50   0
193       246711  50  900  50   0
194       250822  50  900  50   0
195       254934  50  900  50   0
196       259046  50  900  50   0
197       263158  50  900  50   0
198       267270  50  900  50   0
199       271382  50  900  50   0
200       275493  50  900  50   0
201       282580  60  880  60   0
202       286735  60  880  60   0
203       290891  60  880  60   0
204       295047  60  880  60   0
205       299202  60  880  60   0
206       303358  60  880  60   0
207       307513  60  880  60   0
208       311669  60  880  60   0
209       315824  60  880  60   0
210       319980  60  880  60   0
211       324136  60  880  60   0
212       328291  60  880  60   0
213       336022  70  860  70   0
214       340222  70  860  70   0
215       344422  70  860  70   0
216       348622  70  860  70   0
217       352823  70  860  70   0
218       357023  70  860  70   0
219       361223  70  860  70   0
220       365423  70  860  70   0
221       369624  70  860  70   0
222       373824  70  860  70   0
223       378024  70  860  70   0
224       382224  70  860  70   0
225       386425  70  860  70   0
226       394871  80  840  80   0
227       399117  80  840  80   0
228       403363  80  840  80   0
229       407609  80  840  80   0
230       411855  80  840  80   0
231       416101  80  840  80   0
232       420346  80  840  80   0
233       424592  80  840  80   0
234       428838  80  840  80   0
235       433084  80  840  80   0
236       437330  80  840  80   0
237       441576  80  840  80   0
238       450721  90  820  90   0
239       455014  90  820  90   0
240       459306  90  820  90   0
241       463599  90  820  90   0
242       467891  90  820  90   0
243       472184  90  820  90   0
244       476477  90  820  90   0
245       480769  90  820  90   0
246       485062  90  820  90   0
247       489354  90  820  90   0
248       493647  90  820  90   0
249       497940  90  820  90   0
250       507812 100  800 100   0
251       512153 100  800 100   0
252       516493 100  800 100   0
253       520833 100  800 100   0
254       525174 100  800 100   0
255       529514 100  800 100   0
256       533854 100  800 100   0
257       538194 100  800 100   0
258       542535 100  800 100   0
259       546875 100  800 100   0
260       551215 100  800 100   0

# Format of ADC events:
# id num dwell delay freq phase
# ..  ..    ns    us   Hz   rad
[ADC]
1 256 10000 80 0 0

# Format of delays:
# id delay (us)
[DELAYS]
1 570

# Sequence Shapes
[SHAPES]

shape_id 1
num_samples 4030
0
0
3
1e-07
0
1e-07
0
1e-07
1e-07
1
2e-07
2e-07
0
1e-07
3e-07
2e-07
3e-07
3e-07
0
4e-07
4e-07
1
5e-07
5e-07
0
6e-07
6e-07
1
8e-07
7e-07
8e-07
9e-07
1e-06
9e-07
1.1e-06
1.1e-06
0
1.2e-06
1.3e-06
1.3e-06
0
1.4e-06
1.5e-06
1.5e-06
0
1.7e-06
1.7e-06
0
1.8e-06
1.8e-06
0
2e-06
2.1e-06
2.1e-06
0
2.2e-06
2.4e-06
2.4e-06
0
2.5e-06
2.6e-06
2.7e-06
2.9e-06
2.9e-06
0
3e-06
3.2e-06
3.2e-06
0
3.4e-06
3.5e-06
3.6e-06
3.7e-06
3.9e-06
4e-06
4.1e-06
4.2e-06
4.3e-06
4.5e-06
4.6e-06
4.8e-06
4.9e-06
5e-06
5.2e-06
5.3e-06
5.4e-06
5.6e-06
5.8e-06
5.9e-06
6.1e-06
6.2e-06
6.3e-06
6.6e-06
6.6e-06
0
6.9e-06
7e-06
7.2e-06
7.3e-06
7.5e-06
7.7e-06
7.9e-06
8e-06
8.2e-06
8.4e-06
8.6e-06
8.8e-06
8.9e-06
9.2e-06
9.3e-06
9.5e-06
9.7e-06
9.9e-06
1.01e-05
1.03e-05
1.05e-05
1.07e-05
1.09e-05
1.11e-05
1.13e-05
1.16e-05
1.17e-05
1.19e-05
1.22e-05
1.24e-05
1.26e-05
1.28e-05
1.31e-05
1.33e-05
1.35e-05
1.37e-05
1.4e-05
1.42e-05
1.44e-05
1.47e-05
1.49e-05
1.51e-05
1.54e-05
1.56e-05
1.59e-05
1.61e-05
1.64e-05
1.66e-05
1.68e-05
1.72e-05
1.73e-05
1.77e-05
1.79e-05
1.81e-05
1.84e-05
1.87e-05
1.9e-05
1.92e-05
1.95e-05
1.97e-05
2e-05
2.03e-05
2.06e-05
2.09e-05
2.11e-05
2.14e-05
2.17e-05
2.2e-05
2.23e-05
2.26e-05
2.28e-05
2.31e-05
2.35e-05
2.37e-05
2.4e-05
2.44e-05
2.46e-05
2.49e-05
2.52e-05
2.55e-05
2.59e-05
2.61e-05
2.65e-05
2.67e-05
2.71e-05
2.74e-05
2.77e-05
2.8e-05
2.83e-05
2.87e-05
2.9e-05
2.93e-05
2.96e-05
2.99e-05
3.03e-05
3.06e-05
3.09e-05
3.13e-05
3.16e-05
3.19e-05
3.23e-05
3.26e-05
3.29e-05
3.33e-05
3.36e-05
3.4e-05
3.43e-05
3.47e-05
3.5e-05
3.53e-05
3.57e-05
3.61e-05
3.64e-05
3.67e-05
3.71e-05
3.75e-05
3.78e-05
3.82e-05
3.85e-05
3.89e-05
3.93e-05
3.96e-05
4e-05
4.03e-05
4.07e-05
4.11e-05
4.15e-05
4.18e-05
4.22e-05
4.26e-05
4.29e-05
4.33e-05
4.37e-05
4.41e-05
4.44e-05
4.48e-05
4.52e-05
4.56e-05
4.6e-05
4.63e-05
4.68e-05
4.71e-05
4.75e-05
4.79e-05
4.83e-05
4.86e-05
4.91e-05
4.95e-05
4.98e-05
5.02e-05
5.07e-05
5.1e-05
5.14e-05
5.18e-05
5.22e-05
5.26e-05
5.3e-05
5.35e-05
5.38e-05
5.42e-05
5.46e-05
5.5e-05
5.54e-05
5.58e-05
5.62e-05
5.67e-05
5.7e-05
5.75e-05
5.78e-05
5.83e-05
5.86e-05
5.91e-05
5.95e-05
5.99e-05
6.03e-05
6.07e-05
6.12e-05
6.15e-05
6.2e-05
6.23e-05
6.28e-05
6.32e-05
6.36e-05
6.41e-05
6.44e-05
6.49e-05
6.53e-05
6.57e-05
6.61e-05
6.65e-05
6.7e-05
6.74e-05
6.78e-05
6.82e-05
6.86e-05
6.91e-05
6.94e-05
6.99e-05
7.03e-05
7.08e-05
7.11e-05
7.16e-05
7.2e-05
7.25e-05
7.28e-05
7.33e-05
7.37e-05
7.41e-05
7.45e-05
7.5e-05
7.54e-05
7.58e-05
7.62e-05
7.67e-05
7.7e-05
7.75e-05
7.8e-05
7.83e-05
7.88e-05
7.92e-05
7.96e-05
8e-05
8.05e-05
8.09e-05
8.13e-05
8.17e-05
8.21e-05
8.26e-05
8.3e-05
8.34e-05
8.38e-05
8.43e-05
8.47e-05
8.51e-05
8.55e-05
8.59e-05
8.64e-05
8.67e-05
8.72e-05
8.76e-05
8.81e-05
8.84e-05
8.89e-05
8.93e-05
8.96e-05
9.02e-05
9.05e-05
9.09e-05
9.14e-05
9.17e-05
9.22e-05
9.26e-05
9.3e-05
9.34e-05
9.38e-05
9.43e-05
9.46e-05
9.51e-05
9.54e-05
9.59e-05
9.62e-05
9.67e-05
9.71e-05
9.75e-05
9.79e-05
9.82e-05
9.87e-05
9.91e-05
9.95e-05
9.99e-05
0.0001003
0.0001006
0.0001011
0.0001015
0.0001018
0.0001023
0.0001026
0.0001031
0.0001034
0.0001038
0.0001042
0.0001046
0.000105
0.0001053
0.0001058
0.0001061
0.0001065
0.0001069
0.0001072
0.0001077
0.000108
0.0001083
0.0001088
0.0001091
0.0001095
0.0001099
0.0001102
0.0001106
0.000111
0.0001113
0.0001117
0.000112
0.0001124
0.0001128
0.0001131
0.0001135
0.0001138
0.0001142
0.0001145
0.0001148
0.0001152
0.0001156
0.0001159
0.0001162
0.0001166
0.0001169
0.0001173
0.0001176
0.0001179
0.0001182
0.0001186
0.0001189
0.0001192
0.0001196
0.0001198
0.0001202
0.0001205
0.0001208
0.0001211
0.0001215
0.0001217
0.0001221
0.0001223
0.0001227
0.0001229
0.0001233
0.0001236
0.0001238
0.0001241
0.0001245
0.0001247
0.000125
0.0001253
0.0001255
0.0001259
0.0001261
0.0001264
0.0001266
0.000127
0.0001272
0.0001274
0.0001277
0.000128
0.0001283
0.0001284
0.0001288
0.000129
0.0001292
0.0001295
0.0001297
0.00013
0.0001302
0.0001304
0.0001307
0.0001309
0.0001311
0.0001313
0.0001316
0.0001317
0.000132
0.0001322
0.0001324
0.0001327
0.0001328
0.000133
0.0001332
0.0001334
0.0001336
0.0001338
0.000134
0.0001342
0.0001343
0.0001345
0.0001347
0.0001349
0.000135
0.0001352
0.0001354
0.0001355
0.0001356
0.0001359
0.0001359
0
0.0001361
0.0001363
0.0001364
0.0001365
0.0001367
0.0001368
0.0001369
0.0001371
0.0001371
0
0.0001373
0.0001374
0.0001375
0.0001376
0.0001377
0.0001378
0.0001379
0.000138
0.0001381
0.0001382
0.0001382
0
0.0001383
0.0001384
0.0001385
0.0001385
0
0.0001386
0.0001387
0.0001387
0
0.0001388
0.0001388
0
0.0001389
0.0001389
1
0.000139
0.000139
2
0.0001391
0.0001391
6
0.000139
0.0001391
0.000139
0.000139
1
0.0001389
0.0001389
1
0.0001388
0.0001388
0
0.0001387
0.0001386
0.0001386
1
0.0001384
0.0001384
0
0.0001383
0.0001382
0.0001381
0.000138
0.000138
0
0.0001378
0.0001377
0.0001376
0.0001375
0.0001374
0.0001373
0.0001371
0.000137
0.0001369
0.0001367
0.0001366
0.0001364
0.0001363
0.0001361
0.0001359
0.0001358
0.0001356
0.0001354
0.0001352
0.0001351
0.0001348
0.0001347
0.0001345
0.0001342
0.0001341
0.0001338
0.0001336
0.0001334
0.0001331
0.0001329
0.0001327
0.0001325
0.0001321
0.000132
0.0001316
0.0001314
0.0001312
0.0001308
0.0001306
0.0001303
0.00013
0.0001297
0.0001294
0.0001291
0.0001288
0.0001285
0.0001282
0.0001278
0.0001275
0.0001272
0.0001268
0.0001265
0.0001262
0.0001258
0.0001254
0.000125
0.0001247
0.0001243
0.000124
0.0001235
0.0001232
0.0001227
0.0001224
0.0001219
0.0001215
0.0001212
0.0001206
0.0001203
0.0001198
0.0001194
0.0001189
0.0001185
0.0001181
0.0001175
0.0001171
0.0001167
0.0001161
0.0001157
0.0001152
0.0001146
0.0001142
0.0001137
0.0001132
0.0001126
0.0001121
0.0001116
0.0001111
0.0001105
0.00011
0.0001094
0.0001089
0.0001083
0.0001078
0.0001071
0.0001066
0.000106
0.0001054
0.0001049
0.0001042
0.0001036
0.000103
0.0001024
0.0001017
0.0001011
0.0001005
9.99e-05
9.92e-05
9.85e-05
9.79e-05
9.72e-05
9.66e-05
9.58e-05
9.52e-05
9.45e-05
9.38e-05
9.31e-05
9.24e-05
9.17e-05
9.1e-05
9.02e-05
8.95e-05
8.88e-05
8.8e-05
8.73e-05
8.65e-05
8.58e-05
8.5e-05
8.42e-05
8.35e-05
8.26e-05
8.19e-05
8.11e-05
8.03e-05
7.94e-05
7.87e-05
7.78e-05
7.7e-05
7.62e-05
7.53e-05
7.45e-05
7.37e-05
7.28e-05
7.19e-05
7.1e-05
7.02e-05
6.93e-05
6.84e-05
6.75e-05
6.66e-05
6.57e-05
6.48e-05
6.39e-05
6.29e-05
6.2e-05
6.11e-05
6.02e-05
5.91e-05
5.83e-05
5.72e-05
5.63e-05
5.54e-05
5.43e-05
5.34e-05
5.23e-05
5.14e-05
5.04e-05
4.93e-05
4.83e-05
4.73e-05
4.63e-05
4.53e-05
4.42e-05
4.31e-05
4.21e-05
4.1e-05
4e-05
3.89e-05
3.78e-05
3.67e-05
3.56e-05
3.45e-05
3.34e-05
3.23e-05
3.12e-05
3.01e-05
2.89e-05
2.78e-05
2.67e-05
2.55e-05
2.43e-05
2.32e-05
2.2e-05
2.08e-05
1.97e-05
1.84e-05
1.73e-05
1.6e-05
1.49e-05
1.36e-05
1.25e-05
1.12e-05
9.9e-06
8.7e-06
7.5e-06
6.3e-06
4.9e-06
3.7e-06
2.5e-06
1.1e-06
-1e-07
-1.4e-06
-2.7e-06
-4.1e-06
-5.3e-06
-6.6e-06
-8e-06
-9.3e-06
-1.06e-05
-1.2e-05
-1.33e-05
-1.46e-05
-1.61e-05
-1.74e-05
-1.87e-05
-2.02e-05
-2.15e-05
-2.29e-05
-2.43e-05
-2.58e-05
-2.71e-05
-2.85e-05
-3e-05
-3.14e-05
-3.29e-05
-3.42e-05
-3.58e-05
-3.72e-05
-3.86e-05
-4.01e-05
-4.16e-05
-4.31e-05
-4.45e-05
-4.61e-05
-4.75e-05
-4.9e-05
-5.06e-05
-5.21e-05
-5.36e-05
-5.51e-05
-5.67e-05
-5.82e-05
-5.97e-05
-6.14e-05
-6.28e-05
-6.45e-05
-6.6e-05
-6.76e-05
-6.92e-05
-7.07e-05
-7.24e-05
-7.4e-05
-7.56e-05
-7.72e-05
-7.88e-05
-8.05e-05
-8.21e-05
-8.37e-05
-8.54e-05
-8.7e-05
-8.87e-05
-9.04e-05
-9.2e-05
-9.37e-05
-9.54e-05
-9.71e-05
-9.88e-05
-0.0001005
-0.0001022
-0.0001039
-0.0001057
-0.0001074
-0.0001091
-0.0001108
-0.0001126
-0.0001143
-0.0001161
-0.0001179
-0.0001196
-0.0001214
-0.0001232
-0.000125
-0.0001267
-0.0001286
-0.0001304
-0.0001322
-0.000134
-0.0001358
-0.0001376
-0.0001395
-0.0001414
-0.0001431
-0.0001451
-0.0001469
-0.0001487
-0.0001506
-0.0001525
-0.0001544
-0.0001563
-0.0001582
-0.00016
-0.000162
-0.0001639
-0.0001658
-0.0001677
-0.0001696
-0.0001716
-0.0001735
-0.0001755
-0.0001774
-0.0001794
-0.0001813
-0.0001833
-0.0001853
-0.0001872
-0.0001892
-0.0001913
-0.0001932
-0.0001952
-0.0001972
-0.0001993
-0.0002013
-0.0002032
-0.0002053
-0.0002074
-0.0002094
-0.0002114
-0.0002135
-0.0002155
-0.0002176
-0.0002197
-0.0002217
-0.0002238
-0.0002259
-0.000228
-0.0002301
-0.0002322
-0.0002343
-0.0002364
-0.0002385
-0.0002406
-0.0002427
-0.0002449
-0.000247
-0.0002492
-0.0002513
-0.0002534
-0.0002556
-0.0002578
-0.0002599
-0.0002621
-0.0002643
-0.0002665
-0.0002686
-0.0002709
-0.000273
-0.0002752
-0.0002775
-0.0002796
-0.0002819
-0.0002841
-0.0002863
-0.0002885
-0.0002908
-0.000293
-0.0002953
-0.0002975
-0.0002998
-0.000302
-0.0003043
-0.0003066
-0.0003088
-0.0003111
-0.0003134
-0.0003157
-0.0003179
-0.0003203
-0.0003226
-0.0003248
-0.0003272
-0.0003295
-0.0003318
-0.0003342
-0.0003364
-0.0003388
-0.0003411
-0.0003435
-0.0003458
-0.0003482
-0.0003505
-0.0003529
-0.0003552
-0.0003576
-0.00036
-0.0003624
-0.0003647
-0.0003671
-0.0003695
-0.0003719
-0.0003743
-0.0003767
-0.000379
-0.0003815
-0.0003839
-0.0003864
-0.0003887
-0.0003912
-0.0003936
-0.000396
-0.0003984
-0.0004009
-0.0004034
-0.0004058
-0.0004082
-0.0004107
-0.0004131
-0.0004156
-0.0004181
-0.0004205
-0.000423
-0.0004255
-0.000428
-0.0004304
-0.000433
-0.0004354
-0.0004379
-0.0004404
-0.0004429
-0.0004455
-0.0004479
-0.0004504
-0.0004529
-0.0004555
-0.000458
-0.0004605
-0.000463
-0.0004656
-0.0004681
-0.0004706
-0.0004732
-0.0004757
-0.0004782
-0.0004808
-0.0004834
-0.0004859
-0.0004884
-0.0004911
-0.0004935
-0.0004962
-0.0004987
0.0005013
0.0005038
0.0005065
0.000509
0.0005116
0.0005142
0.0005167
0.0005194
0.0005219
0.0005246
0.0005271
0.0005298
0.0005323
0.000535
0.0005375
0.0005402
0.0005428
0.0005453
0.0005481
0.0005506
0.0005532
0.0005559
0.0005585
0.0005611
0.0005637
0.0005664
0.000569
0.0005717
0.0005743
0.0005769
0.0005796
0.0005822
0.0005848
0.0005875
0.0005902
0.0005928
0.0005954
0.0005982
0.0006007
0.0006034
0.0006061
0.0006088
0.0006114
0.000614
0.0006168
0.0006194
0.000622
0.0006248
0.0006274
0.00063
0.0006328
0.0006354
0.0006381
0.0006408
0.0006434
0.0006462
0.0006488
0.0006515
0.0006542
0.0006568
0.0006596
0.0006622
0.0006649
0.0006677
0.0006702
0.000673
0.0006757
0.0006784
0.000681
0.0006838
0.0006864
0.0006892
0.0006918
0.0006945
0.0006972
0.0006999
0.0007027
0.0007053
0.000708
0.0007107
0.0007134
0.0007161
0.0007188
0.0007214
0.0007242
0.0007269
0.0007296
0.0007323
0.000735
0.0007377
0.0007404
0.000743
0.0007458
0.0007485
0.0007512
0.0007539
0.0007565
0.0007593
0.000762
0.0007647
0.0007673
0.0007701
0.0007727
0.0007755
0.0007781
0.0007809
0.0007835
0.0007863
0.0007889
0.0007916
0.0007943
