# Pulseq sequence file
# Created by PyPulseq

[VERSION]
major 1
minor 3
revision 1post1

[DEFINITIONS]
Name 3D T1 MPRAGE 

# Format of blocks:
#  #  D RF  GX  GY  GZ ADC EXT
[BLOCKS]
  1  0  1   0   0   0  0  0
  2  0  0   1   1   1  0  0
  3  1  0   0   0   0  0  0
  4  0  2   0   0   0  0  0
  5  0  0   2   3   4  0  0
  6  0  0   5   0   0  1  0
  7  0  0   6   0   7  0  0
  8  2  0   0   0   0  0  0
  9  3  0   0   0   0  0  0
 10  0  1   0   0   0  0  0
 11  0  0   1   1   1  0  0
 12  1  0   0   0   0  0  0
 13  0  2   0   0   0  0  0
 14  0  0   2   8   4  0  0
 15  0  0   5   0   0  1  0
 16  0  0   6   0   7  0  0
 17  2  0   0   0   0  0  0
 18  3  0   0   0   0  0  0
 19  0  1   0   0   0  0  0
 20  0  0   1   1   1  0  0
 21  1  0   0   0   0  0  0
 22  0  2   0   0   0  0  0
 23  0  0   2   9   4  0  0
 24  0  0   5   0   0  1  0
 25  0  0   6   0   7  0  0
 26  2  0   0   0   0  0  0
 27  3  0   0   0   0  0  0
 28  0  1   0   0   0  0  0
 29  0  0   1   1   1  0  0
 30  1  0   0   0   0  0  0
 31  0  2   0   0   0  0  0
 32  0  0   2  10   4  0  0
 33  0  0   5   0   0  1  0
 34  0  0   6   0   7  0  0
 35  2  0   0   0   0  0  0
 36  3  0   0   0   0  0  0
 37  0  1   0   0   0  0  0
 38  0  0   1   1   1  0  0
 39  1  0   0   0   0  0  0
 40  0  2   0   0   0  0  0
 41  0  0   2  11   4  0  0
 42  0  0   5   0   0  1  0
 43  0  0   6   0   7  0  0
 44  2  0   0   0   0  0  0
 45  3  0   0   0   0  0  0
 46  0  1   0   0   0  0  0
 47  0  0   1   1   1  0  0
 48  1  0   0   0   0  0  0
 49  0  2   0   0   0  0  0
 50  0  0   2  12   4  0  0
 51  0  0   5   0   0  1  0
 52  0  0   6   0   7  0  0
 53  2  0   0   0   0  0  0
 54  3  0   0   0   0  0  0
 55  0  1   0   0   0  0  0
 56  0  0   1   1   1  0  0
 57  1  0   0   0   0  0  0
 58  0  2   0   0   0  0  0
 59  0  0   2  13   4  0  0
 60  0  0   5   0   0  1  0
 61  0  0   6   0   7  0  0
 62  2  0   0   0   0  0  0
 63  3  0   0   0   0  0  0
 64  0  1   0   0   0  0  0
 65  0  0   1   1   1  0  0
 66  1  0   0   0   0  0  0
 67  0  2   0   0   0  0  0
 68  0  0   2  14   4  0  0
 69  0  0   5   0   0  1  0
 70  0  0   6   0   7  0  0
 71  2  0   0   0   0  0  0
 72  3  0   0   0   0  0  0
 73  0  1   0   0   0  0  0
 74  0  0   1   1   1  0  0
 75  1  0   0   0   0  0  0
 76  0  2   0   0   0  0  0
 77  0  0   2  15   4  0  0
 78  0  0   5   0   0  1  0
 79  0  0   6   0   7  0  0
 80  2  0   0   0   0  0  0
 81  3  0   0   0   0  0  0
 82  0  1   0   0   0  0  0
 83  0  0   1   1   1  0  0
 84  1  0   0   0   0  0  0
 85  0  2   0   0   0  0  0
 86  0  0   2  16   4  0  0
 87  0  0   5   0   0  1  0
 88  0  0   6   0   7  0  0
 89  2  0   0   0   0  0  0
 90  3  0   0   0   0  0  0
 91  0  1   0   0   0  0  0
 92  0  0   1   1   1  0  0
 93  1  0   0   0   0  0  0
 94  0  2   0   0   0  0  0
 95  0  0   2  17   4  0  0
 96  0  0   5   0   0  1  0
 97  0  0   6   0   7  0  0
 98  2  0   0   0   0  0  0
 99  3  0   0   0   0  0  0
100  0  1   0   0   0  0  0
101  0  0   1   1   1  0  0
102  1  0   0   0   0  0  0
103  0  2   0   0   0  0  0
104  0  0   2  18   4  0  0
105  0  0   5   0   0  1  0
106  0  0   6   0   7  0  0
107  2  0   0   0   0  0  0
108  3  0   0   0   0  0  0
109  0  1   0   0   0  0  0
110  0  0   1   1   1  0  0
111  1  0   0   0   0  0  0
112  0  2   0   0   0  0  0
113  0  0   2  19   4  0  0
114  0  0   5   0   0  1  0
115  0  0   6   0   7  0  0
116  2  0   0   0   0  0  0
117  3  0   0   0   0  0  0
118  0  1   0   0   0  0  0
119  0  0   1   1   1  0  0
120  1  0   0   0   0  0  0
121  0  2   0   0   0  0  0
122  0  0   2  20   4  0  0
123  0  0   5   0   0  1  0
124  0  0   6   0   7  0  0
125  2  0   0   0   0  0  0
126  3  0   0   0   0  0  0
127  0  1   0   0   0  0  0
128  0  0   1   1   1  0  0
129  1  0   0   0   0  0  0
130  0  2   0   0   0  0  0
131  0  0   2  21   4  0  0
132  0  0   5   0   0  1  0
133  0  0   6   0   7  0  0
134  2  0   0   0   0  0  0
135  3  0   0   0   0  0  0
136  0  1   0   0   0  0  0
137  0  0   1   1   1  0  0
138  1  0   0   0   0  0  0
139  0  2   0   0   0  0  0
140  0  0   2  22   4  0  0
141  0  0   5   0   0  1  0
142  0  0   6   0   7  0  0
143  2  0   0   0   0  0  0
144  3  0   0   0   0  0  0

# Format of RF events:
# id amplitude mag_id phase_id delay freq phase
# ..        Hz   ....     ....    us   Hz   rad
[RF]
1          500 1 2 100 0 0
2      133.333 3 4 100 0 0

# Format of arbitrary gradients:
# id amplitude shape_id delay
# ..      Hz/m     ....    us
[GRADIENTS]
5       199960 5 0
6       211644 6 0

# Format of trapezoid gradients:
# id amplitude rise flat fall delay
# ..      Hz/m   us   us   us    us
[TRAP]
 1       211644  40 3760  40   0
 2     -63492.1  20 1960  20   0
 3     -63131.3  20 1960  20   0
 4     -3925.88  10 1980  10   0
 7      3925.88  10 1980  10   0
 8     -54962.3  10 1980  10   0
 9     -47110.6  10 1980  10   0
10     -39258.8  10 1980  10   0
11       -31407  10 1980  10   0
12     -23555.3  10 1980  10   0
13     -15703.5  10 1980  10   0
14     -7851.76  10 1980  10   0
15            0  10 1980  10   0
16      7851.76  10 1980  10   0
17      15703.5  10 1980  10   0
18      23555.3  10 1980  10   0
19        31407  10 1980  10   0
20      39258.8  10 1980  10   0
21      47110.6  10 1980  10   0
22      54962.3  10 1980  10   0

# Format of ADC events:
# id num dwell delay freq phase
# ..  ..    ns    us   Hz   rad
[ADC]
1 16 218750 20 0 0

# Format of delays:
# id delay (us)
[DELAYS]
1 135855
2 260
3 1000

# Sequence Shapes
[SHAPES]

shape_id 1
num_samples 510
1
0
0
497
-1
0
0
7

shape_id 2
num_samples 510
0
0
508

shape_id 3
num_samples 260
1
0
0
247
-1
0
0
7

shape_id 4
num_samples 260
0
0
258

shape_id 5
num_samples 356
0.0893038
0.1786076
0.0893038
0
0
345
0.058435
0.1168699
0.11687
0.11687
0
0.1168699
0.11687

shape_id 6
num_samples 384
1
0
0
377
-0.125
-0.25
-0.25
1

