# Pulseq sequence file
# Created by PyPulseq

[VERSION]
major 1
minor 3
revision 1

[DEFINITIONS]
Name 3D T1 MPRAGE 

# Format of blocks:
#  #  D RF  GX  GY  GZ ADC EXT
[BLOCKS]
  1  0  1   0   0   0  0  0
  2  0  0   1   1   1  0  0
  3  1  0   0   0   0  0  0
  4  0  2   0   0   0  0  0
  5  0  0   2   3   4  0  0
  6  0  0   5   0   0  1  0
  7  0  0   6   0   7  0  0
  8  2  0   0   0   0  0  0
  9  3  0   0   0   0  0  0
 10  0  1   0   0   0  0  0
 11  0  0   1   1   1  0  0
 12  1  0   0   0   0  0  0
 13  0  2   0   0   0  0  0
 14  0  0   2   8   4  0  0
 15  0  0   5   0   0  1  0
 16  0  0   6   0   7  0  0
 17  2  0   0   0   0  0  0
 18  3  0   0   0   0  0  0
 19  0  1   0   0   0  0  0
 20  0  0   1   1   1  0  0
 21  1  0   0   0   0  0  0
 22  0  2   0   0   0  0  0
 23  0  0   2   9   4  0  0
 24  0  0   5   0   0  1  0
 25  0  0   6   0   7  0  0
 26  2  0   0   0   0  0  0
 27  3  0   0   0   0  0  0
 28  0  1   0   0   0  0  0
 29  0  0   1   1   1  0  0
 30  1  0   0   0   0  0  0
 31  0  2   0   0   0  0  0
 32  0  0   2  10   4  0  0
 33  0  0   5   0   0  1  0
 34  0  0   6   0   7  0  0
 35  2  0   0   0   0  0  0
 36  3  0   0   0   0  0  0
 37  0  1   0   0   0  0  0
 38  0  0   1   1   1  0  0
 39  1  0   0   0   0  0  0
 40  0  2   0   0   0  0  0
 41  0  0   2  11   4  0  0
 42  0  0   5   0   0  1  0
 43  0  0   6   0   7  0  0
 44  2  0   0   0   0  0  0
 45  3  0   0   0   0  0  0
 46  0  1   0   0   0  0  0
 47  0  0   1   1   1  0  0
 48  1  0   0   0   0  0  0
 49  0  2   0   0   0  0  0
 50  0  0   2  12   4  0  0
 51  0  0   5   0   0  1  0
 52  0  0   6   0   7  0  0
 53  2  0   0   0   0  0  0
 54  3  0   0   0   0  0  0
 55  0  1   0   0   0  0  0
 56  0  0   1   1   1  0  0
 57  1  0   0   0   0  0  0
 58  0  2   0   0   0  0  0
 59  0  0   2  13   4  0  0
 60  0  0   5   0   0  1  0
 61  0  0   6   0   7  0  0
 62  2  0   0   0   0  0  0
 63  3  0   0   0   0  0  0
 64  0  1   0   0   0  0  0
 65  0  0   1   1   1  0  0
 66  1  0   0   0   0  0  0
 67  0  2   0   0   0  0  0
 68  0  0   2  14   4  0  0
 69  0  0   5   0   0  1  0
 70  0  0   6   0   7  0  0
 71  2  0   0   0   0  0  0
 72  3  0   0   0   0  0  0
 73  0  1   0   0   0  0  0
 74  0  0   1   1   1  0  0
 75  1  0   0   0   0  0  0
 76  0  2   0   0   0  0  0
 77  0  0   2  15   4  0  0
 78  0  0   5   0   0  1  0
 79  0  0   6   0   7  0  0
 80  2  0   0   0   0  0  0
 81  3  0   0   0   0  0  0
 82  0  1   0   0   0  0  0
 83  0  0   1   1   1  0  0
 84  1  0   0   0   0  0  0
 85  0  2   0   0   0  0  0
 86  0  0   2  16   4  0  0
 87  0  0   5   0   0  1  0
 88  0  0   6   0   7  0  0
 89  2  0   0   0   0  0  0
 90  3  0   0   0   0  0  0
 91  0  1   0   0   0  0  0
 92  0  0   1   1   1  0  0
 93  1  0   0   0   0  0  0
 94  0  2   0   0   0  0  0
 95  0  0   2  17   4  0  0
 96  0  0   5   0   0  1  0
 97  0  0   6   0   7  0  0
 98  2  0   0   0   0  0  0
 99  3  0   0   0   0  0  0
100  0  1   0   0   0  0  0
101  0  0   1   1   1  0  0
102  1  0   0   0   0  0  0
103  0  2   0   0   0  0  0
104  0  0   2  18   4  0  0
105  0  0   5   0   0  1  0
106  0  0   6   0   7  0  0
107  2  0   0   0   0  0  0
108  3  0   0   0   0  0  0
109  0  1   0   0   0  0  0
110  0  0   1   1   1  0  0
111  1  0   0   0   0  0  0
112  0  2   0   0   0  0  0
113  0  0   2  19   4  0  0
114  0  0   5   0   0  1  0
115  0  0   6   0   7  0  0
116  2  0   0   0   0  0  0
117  3  0   0   0   0  0  0
118  0  1   0   0   0  0  0
119  0  0   1   1   1  0  0
120  1  0   0   0   0  0  0
121  0  2   0   0   0  0  0
122  0  0   2  20   4  0  0
123  0  0   5   0   0  1  0
124  0  0   6   0   7  0  0
125  2  0   0   0   0  0  0
126  3  0   0   0   0  0  0
127  0  1   0   0   0  0  0
128  0  0   1   1   1  0  0
129  1  0   0   0   0  0  0
130  0  2   0   0   0  0  0
131  0  0   2  21   4  0  0
132  0  0   5   0   0  1  0
133  0  0   6   0   7  0  0
134  2  0   0   0   0  0  0
135  3  0   0   0   0  0  0
136  0  1   0   0   0  0  0
137  0  0   1   1   1  0  0
138  1  0   0   0   0  0  0
139  0  2   0   0   0  0  0
140  0  0   2  22   4  0  0
141  0  0   5   0   0  1  0
142  0  0   6   0   7  0  0
143  2  0   0   0   0  0  0
144  3  0   0   0   0  0  0
145  0  1   0   0   0  0  0
146  0  0   1   1   1  0  0
147  1  0   0   0   0  0  0
148  0  2   0   0   0  0  0
149  0  0   2  23   4  0  0
150  0  0   5   0   0  1  0
151  0  0   6   0   7  0  0
152  2  0   0   0   0  0  0
153  3  0   0   0   0  0  0
154  0  1   0   0   0  0  0
155  0  0   1   1   1  0  0
156  1  0   0   0   0  0  0
157  0  2   0   0   0  0  0
158  0  0   2  24   4  0  0
159  0  0   5   0   0  1  0
160  0  0   6   0   7  0  0
161  2  0   0   0   0  0  0
162  3  0   0   0   0  0  0
163  0  1   0   0   0  0  0
164  0  0   1   1   1  0  0
165  1  0   0   0   0  0  0
166  0  2   0   0   0  0  0
167  0  0   2  25   4  0  0
168  0  0   5   0   0  1  0
169  0  0   6   0   7  0  0
170  2  0   0   0   0  0  0
171  3  0   0   0   0  0  0
172  0  1   0   0   0  0  0
173  0  0   1   1   1  0  0
174  1  0   0   0   0  0  0
175  0  2   0   0   0  0  0
176  0  0   2  26   4  0  0
177  0  0   5   0   0  1  0
178  0  0   6   0   7  0  0
179  2  0   0   0   0  0  0
180  3  0   0   0   0  0  0
181  0  1   0   0   0  0  0
182  0  0   1   1   1  0  0
183  1  0   0   0   0  0  0
184  0  2   0   0   0  0  0
185  0  0   2  27   4  0  0
186  0  0   5   0   0  1  0
187  0  0   6   0   7  0  0
188  2  0   0   0   0  0  0
189  3  0   0   0   0  0  0
190  0  1   0   0   0  0  0
191  0  0   1   1   1  0  0
192  1  0   0   0   0  0  0
193  0  2   0   0   0  0  0
194  0  0   2  28   4  0  0
195  0  0   5   0   0  1  0
196  0  0   6   0   7  0  0
197  2  0   0   0   0  0  0
198  3  0   0   0   0  0  0
199  0  1   0   0   0  0  0
200  0  0   1   1   1  0  0
201  1  0   0   0   0  0  0
202  0  2   0   0   0  0  0
203  0  0   2  29   4  0  0
204  0  0   5   0   0  1  0
205  0  0   6   0   7  0  0
206  2  0   0   0   0  0  0
207  3  0   0   0   0  0  0
208  0  1   0   0   0  0  0
209  0  0   1   1   1  0  0
210  1  0   0   0   0  0  0
211  0  2   0   0   0  0  0
212  0  0   2  30   4  0  0
213  0  0   5   0   0  1  0
214  0  0   6   0   7  0  0
215  2  0   0   0   0  0  0
216  3  0   0   0   0  0  0
217  0  1   0   0   0  0  0
218  0  0   1   1   1  0  0
219  1  0   0   0   0  0  0
220  0  2   0   0   0  0  0
221  0  0   2  31   4  0  0
222  0  0   5   0   0  1  0
223  0  0   6   0   7  0  0
224  2  0   0   0   0  0  0
225  3  0   0   0   0  0  0
226  0  1   0   0   0  0  0
227  0  0   1   1   1  0  0
228  1  0   0   0   0  0  0
229  0  2   0   0   0  0  0
230  0  0   2  32   4  0  0
231  0  0   5   0   0  1  0
232  0  0   6   0   7  0  0
233  2  0   0   0   0  0  0
234  3  0   0   0   0  0  0
235  0  1   0   0   0  0  0
236  0  0   1   1   1  0  0
237  1  0   0   0   0  0  0
238  0  2   0   0   0  0  0
239  0  0   2  33   4  0  0
240  0  0   5   0   0  1  0
241  0  0   6   0   7  0  0
242  2  0   0   0   0  0  0
243  3  0   0   0   0  0  0
244  0  1   0   0   0  0  0
245  0  0   1   1   1  0  0
246  1  0   0   0   0  0  0
247  0  2   0   0   0  0  0
248  0  0   2  34   4  0  0
249  0  0   5   0   0  1  0
250  0  0   6   0   7  0  0
251  2  0   0   0   0  0  0
252  3  0   0   0   0  0  0
253  0  1   0   0   0  0  0
254  0  0   1   1   1  0  0
255  1  0   0   0   0  0  0
256  0  2   0   0   0  0  0
257  0  0   2  35   4  0  0
258  0  0   5   0   0  1  0
259  0  0   6   0   7  0  0
260  2  0   0   0   0  0  0
261  3  0   0   0   0  0  0
262  0  1   0   0   0  0  0
263  0  0   1   1   1  0  0
264  1  0   0   0   0  0  0
265  0  2   0   0   0  0  0
266  0  0   2  36   4  0  0
267  0  0   5   0   0  1  0
268  0  0   6   0   7  0  0
269  2  0   0   0   0  0  0
270  3  0   0   0   0  0  0
271  0  1   0   0   0  0  0
272  0  0   1   1   1  0  0
273  1  0   0   0   0  0  0
274  0  2   0   0   0  0  0
275  0  0   2  37   4  0  0
276  0  0   5   0   0  1  0
277  0  0   6   0   7  0  0
278  2  0   0   0   0  0  0
279  3  0   0   0   0  0  0
280  0  1   0   0   0  0  0
281  0  0   1   1   1  0  0
282  1  0   0   0   0  0  0
283  0  2   0   0   0  0  0
284  0  0   2  38   4  0  0
285  0  0   5   0   0  1  0
286  0  0   6   0   7  0  0
287  2  0   0   0   0  0  0
288  3  0   0   0   0  0  0
289  0  1   0   0   0  0  0
290  0  0   1   1   1  0  0
291  1  0   0   0   0  0  0
292  0  2   0   0   0  0  0
293  0  0   2  39   4  0  0
294  0  0   5   0   0  1  0
295  0  0   6   0   7  0  0
296  2  0   0   0   0  0  0
297  3  0   0   0   0  0  0
298  0  1   0   0   0  0  0
299  0  0   1   1   1  0  0
300  1  0   0   0   0  0  0
301  0  2   0   0   0  0  0
302  0  0   2  40   4  0  0
303  0  0   5   0   0  1  0
304  0  0   6   0   7  0  0
305  2  0   0   0   0  0  0
306  3  0   0   0   0  0  0
307  0  1   0   0   0  0  0
308  0  0   1   1   1  0  0
309  1  0   0   0   0  0  0
310  0  2   0   0   0  0  0
311  0  0   2  41   4  0  0
312  0  0   5   0   0  1  0
313  0  0   6   0   7  0  0
314  2  0   0   0   0  0  0
315  3  0   0   0   0  0  0
316  0  1   0   0   0  0  0
317  0  0   1   1   1  0  0
318  1  0   0   0   0  0  0
319  0  2   0   0   0  0  0
320  0  0   2  42   4  0  0
321  0  0   5   0   0  1  0
322  0  0   6   0   7  0  0
323  2  0   0   0   0  0  0
324  3  0   0   0   0  0  0
325  0  1   0   0   0  0  0
326  0  0   1   1   1  0  0
327  1  0   0   0   0  0  0
328  0  2   0   0   0  0  0
329  0  0   2  43   4  0  0
330  0  0   5   0   0  1  0
331  0  0   6   0   7  0  0
332  2  0   0   0   0  0  0
333  3  0   0   0   0  0  0
334  0  1   0   0   0  0  0
335  0  0   1   1   1  0  0
336  1  0   0   0   0  0  0
337  0  2   0   0   0  0  0
338  0  0   2  44   4  0  0
339  0  0   5   0   0  1  0
340  0  0   6   0   7  0  0
341  2  0   0   0   0  0  0
342  3  0   0   0   0  0  0
343  0  1   0   0   0  0  0
344  0  0   1   1   1  0  0
345  1  0   0   0   0  0  0
346  0  2   0   0   0  0  0
347  0  0   2  45   4  0  0
348  0  0   5   0   0  1  0
349  0  0   6   0   7  0  0
350  2  0   0   0   0  0  0
351  3  0   0   0   0  0  0
352  0  1   0   0   0  0  0
353  0  0   1   1   1  0  0
354  1  0   0   0   0  0  0
355  0  2   0   0   0  0  0
356  0  0   2  46   4  0  0
357  0  0   5   0   0  1  0
358  0  0   6   0   7  0  0
359  2  0   0   0   0  0  0
360  3  0   0   0   0  0  0
361  0  1   0   0   0  0  0
362  0  0   1   1   1  0  0
363  1  0   0   0   0  0  0
364  0  2   0   0   0  0  0
365  0  0   2  47   4  0  0
366  0  0   5   0   0  1  0
367  0  0   6   0   7  0  0
368  2  0   0   0   0  0  0
369  3  0   0   0   0  0  0
370  0  1   0   0   0  0  0
371  0  0   1   1   1  0  0
372  1  0   0   0   0  0  0
373  0  2   0   0   0  0  0
374  0  0   2  48   4  0  0
375  0  0   5   0   0  1  0
376  0  0   6   0   7  0  0
377  2  0   0   0   0  0  0
378  3  0   0   0   0  0  0
379  0  1   0   0   0  0  0
380  0  0   1   1   1  0  0
381  1  0   0   0   0  0  0
382  0  2   0   0   0  0  0
383  0  0   2  49   4  0  0
384  0  0   5   0   0  1  0
385  0  0   6   0   7  0  0
386  2  0   0   0   0  0  0
387  3  0   0   0   0  0  0
388  0  1   0   0   0  0  0
389  0  0   1   1   1  0  0
390  1  0   0   0   0  0  0
391  0  2   0   0   0  0  0
392  0  0   2  50   4  0  0
393  0  0   5   0   0  1  0
394  0  0   6   0   7  0  0
395  2  0   0   0   0  0  0
396  3  0   0   0   0  0  0
397  0  1   0   0   0  0  0
398  0  0   1   1   1  0  0
399  1  0   0   0   0  0  0
400  0  2   0   0   0  0  0
401  0  0   2  51   4  0  0
402  0  0   5   0   0  1  0
403  0  0   6   0   7  0  0
404  2  0   0   0   0  0  0
405  3  0   0   0   0  0  0
406  0  1   0   0   0  0  0
407  0  0   1   1   1  0  0
408  1  0   0   0   0  0  0
409  0  2   0   0   0  0  0
410  0  0   2  52   4  0  0
411  0  0   5   0   0  1  0
412  0  0   6   0   7  0  0
413  2  0   0   0   0  0  0
414  3  0   0   0   0  0  0
415  0  1   0   0   0  0  0
416  0  0   1   1   1  0  0
417  1  0   0   0   0  0  0
418  0  2   0   0   0  0  0
419  0  0   2  53   4  0  0
420  0  0   5   0   0  1  0
421  0  0   6   0   7  0  0
422  2  0   0   0   0  0  0
423  3  0   0   0   0  0  0
424  0  1   0   0   0  0  0
425  0  0   1   1   1  0  0
426  1  0   0   0   0  0  0
427  0  2   0   0   0  0  0
428  0  0   2  54   4  0  0
429  0  0   5   0   0  1  0
430  0  0   6   0   7  0  0
431  2  0   0   0   0  0  0
432  3  0   0   0   0  0  0
433  0  1   0   0   0  0  0
434  0  0   1   1   1  0  0
435  1  0   0   0   0  0  0
436  0  2   0   0   0  0  0
437  0  0   2  55   4  0  0
438  0  0   5   0   0  1  0
439  0  0   6   0   7  0  0
440  2  0   0   0   0  0  0
441  3  0   0   0   0  0  0
442  0  1   0   0   0  0  0
443  0  0   1   1   1  0  0
444  1  0   0   0   0  0  0
445  0  2   0   0   0  0  0
446  0  0   2  56   4  0  0
447  0  0   5   0   0  1  0
448  0  0   6   0   7  0  0
449  2  0   0   0   0  0  0
450  3  0   0   0   0  0  0
451  0  1   0   0   0  0  0
452  0  0   1   1   1  0  0
453  1  0   0   0   0  0  0
454  0  2   0   0   0  0  0
455  0  0   2  57   4  0  0
456  0  0   5   0   0  1  0
457  0  0   6   0   7  0  0
458  2  0   0   0   0  0  0
459  3  0   0   0   0  0  0
460  0  1   0   0   0  0  0
461  0  0   1   1   1  0  0
462  1  0   0   0   0  0  0
463  0  2   0   0   0  0  0
464  0  0   2  58   4  0  0
465  0  0   5   0   0  1  0
466  0  0   6   0   7  0  0
467  2  0   0   0   0  0  0
468  3  0   0   0   0  0  0
469  0  1   0   0   0  0  0
470  0  0   1   1   1  0  0
471  1  0   0   0   0  0  0
472  0  2   0   0   0  0  0
473  0  0   2  59   4  0  0
474  0  0   5   0   0  1  0
475  0  0   6   0   7  0  0
476  2  0   0   0   0  0  0
477  3  0   0   0   0  0  0
478  0  1   0   0   0  0  0
479  0  0   1   1   1  0  0
480  1  0   0   0   0  0  0
481  0  2   0   0   0  0  0
482  0  0   2  60   4  0  0
483  0  0   5   0   0  1  0
484  0  0   6   0   7  0  0
485  2  0   0   0   0  0  0
486  3  0   0   0   0  0  0
487  0  1   0   0   0  0  0
488  0  0   1   1   1  0  0
489  1  0   0   0   0  0  0
490  0  2   0   0   0  0  0
491  0  0   2  61   4  0  0
492  0  0   5   0   0  1  0
493  0  0   6   0   7  0  0
494  2  0   0   0   0  0  0
495  3  0   0   0   0  0  0
496  0  1   0   0   0  0  0
497  0  0   1   1   1  0  0
498  1  0   0   0   0  0  0
499  0  2   0   0   0  0  0
500  0  0   2  62   4  0  0
501  0  0   5   0   0  1  0
502  0  0   6   0   7  0  0
503  2  0   0   0   0  0  0
504  3  0   0   0   0  0  0
505  0  1   0   0   0  0  0
506  0  0   1   1   1  0  0
507  1  0   0   0   0  0  0
508  0  2   0   0   0  0  0
509  0  0   2  63   4  0  0
510  0  0   5   0   0  1  0
511  0  0   6   0   7  0  0
512  2  0   0   0   0  0  0
513  3  0   0   0   0  0  0
514  0  1   0   0   0  0  0
515  0  0   1   1   1  0  0
516  1  0   0   0   0  0  0
517  0  2   0   0   0  0  0
518  0  0   2  64   4  0  0
519  0  0   5   0   0  1  0
520  0  0   6   0   7  0  0
521  2  0   0   0   0  0  0
522  3  0   0   0   0  0  0
523  0  1   0   0   0  0  0
524  0  0   1   1   1  0  0
525  1  0   0   0   0  0  0
526  0  2   0   0   0  0  0
527  0  0   2  65   4  0  0
528  0  0   5   0   0  1  0
529  0  0   6   0   7  0  0
530  2  0   0   0   0  0  0
531  3  0   0   0   0  0  0
532  0  1   0   0   0  0  0
533  0  0   1   1   1  0  0
534  1  0   0   0   0  0  0
535  0  2   0   0   0  0  0
536  0  0   2  66   4  0  0
537  0  0   5   0   0  1  0
538  0  0   6   0   7  0  0
539  2  0   0   0   0  0  0
540  3  0   0   0   0  0  0
541  0  1   0   0   0  0  0
542  0  0   1   1   1  0  0
543  1  0   0   0   0  0  0
544  0  2   0   0   0  0  0
545  0  0   2  67   4  0  0
546  0  0   5   0   0  1  0
547  0  0   6   0   7  0  0
548  2  0   0   0   0  0  0
549  3  0   0   0   0  0  0
550  0  1   0   0   0  0  0
551  0  0   1   1   1  0  0
552  1  0   0   0   0  0  0
553  0  2   0   0   0  0  0
554  0  0   2  68   4  0  0
555  0  0   5   0   0  1  0
556  0  0   6   0   7  0  0
557  2  0   0   0   0  0  0
558  3  0   0   0   0  0  0
559  0  1   0   0   0  0  0
560  0  0   1   1   1  0  0
561  1  0   0   0   0  0  0
562  0  2   0   0   0  0  0
563  0  0   2  69   4  0  0
564  0  0   5   0   0  1  0
565  0  0   6   0   7  0  0
566  2  0   0   0   0  0  0
567  3  0   0   0   0  0  0
568  0  1   0   0   0  0  0
569  0  0   1   1   1  0  0
570  1  0   0   0   0  0  0
571  0  2   0   0   0  0  0
572  0  0   2  70   4  0  0
573  0  0   5   0   0  1  0
574  0  0   6   0   7  0  0
575  2  0   0   0   0  0  0
576  3  0   0   0   0  0  0

# Format of RF events:
# id amplitude mag_id phase_id delay freq phase
# ..        Hz   ....     ....    us   Hz   rad
[RF]
1          500 1 2 100 0 0
2      133.333 3 4 100 0 0

# Format of arbitrary gradients:
# id amplitude shape_id delay
# ..      Hz/m     ....    us
[GRADIENTS]
5       285714 5 0
6       211644 6 0

# Format of trapezoid gradients:
# id amplitude rise flat fall delay
# ..      Hz/m   us   us   us    us
[TRAP]
 1       211644  40 3760  40   0
 2      -260806  50 1900  50   0
 3      -256410  50 1900  50   0
 4     -3925.88  10 1980  10   0
 7      3925.88  10 1980  10   0
 8      -248397  50 1900  50   0
 9      -240385  50 1900  50   0
10      -232372  50 1900  50   0
11      -224359  50 1900  50   0
12      -215242  40 1920  40   0
13      -207270  40 1920  40   0
14      -199298  40 1920  40   0
15      -191327  40 1920  40   0
16      -183355  40 1920  40   0
17      -175383  40 1920  40   0
18      -167411  40 1920  40   0
19      -158629  30 1940  30   0
20      -150698  30 1940  30   0
21      -142766  30 1940  30   0
22      -134835  30 1940  30   0
23      -126904  30 1940  30   0
24      -118972  30 1940  30   0
25      -110480  20 1960  20   0
26      -102588  20 1960  20   0
27       -94697  20 1960  20   0
28     -86805.6  20 1960  20   0
29     -78914.1  20 1960  20   0
30     -71022.7  20 1960  20   0
31     -63131.3  20 1960  20   0
32     -54962.3  10 1980  10   0
33     -47110.6  10 1980  10   0
34     -39258.8  10 1980  10   0
35       -31407  10 1980  10   0
36     -23555.3  10 1980  10   0
37     -15703.5  10 1980  10   0
38     -7851.76  10 1980  10   0
39            0  10 1980  10   0
40      7851.76  10 1980  10   0
41      15703.5  10 1980  10   0
42      23555.3  10 1980  10   0
43        31407  10 1980  10   0
44      39258.8  10 1980  10   0
45      47110.6  10 1980  10   0
46      54962.3  10 1980  10   0
47      63131.3  20 1960  20   0
48      71022.7  20 1960  20   0
49      78914.1  20 1960  20   0
50      86805.6  20 1960  20   0
51        94697  20 1960  20   0
52       102588  20 1960  20   0
53       110480  20 1960  20   0
54       118972  30 1940  30   0
55       126904  30 1940  30   0
56       134835  30 1940  30   0
57       142766  30 1940  30   0
58       150698  30 1940  30   0
59       158629  30 1940  30   0
60       167411  40 1920  40   0
61       175383  40 1920  40   0
62       183355  40 1920  40   0
63       191327  40 1920  40   0
64       199298  40 1920  40   0
65       207270  40 1920  40   0
66       215242  40 1920  40   0
67       224359  50 1900  50   0
68       232372  50 1900  50   0
69       240385  50 1900  50   0
70       248397  50 1900  50   0

# Format of ADC events:
# id num dwell delay freq phase
# ..  ..    ns    us   Hz   rad
[ADC]
1 64 54688 60 0 0

# Format of delays:
# id delay (us)
[DELAYS]
1 135855
2 180
3 1000

# Sequence Shapes
[SHAPES]

shape_id 1
num_samples 510
1
0
0
497
-1
0
0
7

shape_id 2
num_samples 510
0
0
508

shape_id 3
num_samples 260
1
0
0
247
-1
0
0
7

shape_id 4
num_samples 260
0
0
258

shape_id 5
num_samples 368
0.0833333
0.1666667
0.1666667
0
0.1666666
0.1666667
0.1666667
0
0.0833333
0
0
341
-0.0072013
-0.0144025
-0.0144025
0
-0.0144026
-0.0144025
-0.0144025
1
-0.0144026
-0.0144025
-0.0144025
0
-0.0144026
-0.0144025
-0.0144025
1
-0.0144026
-0.0144025
-0.0144025
0
-0.0144026

shape_id 6
num_samples 384
1
0
0
377
-0.125
-0.25
-0.25
1

